Tangential Coordintae (mm)	Measured Slope (rad)
-77.8	-0.0010766157126933197
-77.6	-0.0010740722717265147
-77.4	-0.001070960069096388
-77.2	-0.0010677846689665733
-77.	-0.0010644942561801715
-76.8	-0.0010611689603731655
-76.6	-0.0010579382038912292
-76.4	-0.0010546548822684483
-76.2	-0.0010512538439789933
-76.	-0.0010481787549570343
-75.8	-0.0010452147077199888
-75.6	-0.0010422645752408387
-75.4	-0.001039522593405201
-75.2	-0.0010369956454939029
-75.	-0.0010345172097265124
-74.8	-0.0010318871309814293
-74.6	-0.0010291279258541894
-74.4	-0.001026323974556448
-74.2	-0.0010236239631088693
-74.	-0.0010208720873081906
-73.8	-0.0010178530561870923
-73.6	-0.0010150731107119548
-73.4	-0.0010123321413224846
-73.2	-0.0010095308067445121
-73.	-0.001006542984793236
-72.8	-0.0010037384398432644
-72.6	-0.001001032727368461
-72.4	-0.0009982538507343406
-72.2	-0.0009953502236275935
-72.	-0.0009923865647844111
-71.8	-0.0009895819533780523
-71.6	-0.0009867866449500115
-71.4	-0.0009838570323048876
-71.2	-0.0009809628763012969
-71.	-0.0009782818822888127
-70.8	-0.0009755122500974245
-70.6	-0.0009725985070581657
-70.4	-0.0009697920607671556
-70.2	-0.000967141825956411
-70.	-0.0009645236942914204
-69.8	-0.0009617506127431165
-69.6	-0.0009588747335442768
-69.4	-0.0009559339511606205
-69.2	-0.0009531370815828806
-69.	-0.0009501950638239524
-68.8	-0.0009471291597056833
-68.6	-0.0009442528887279711
-68.4	-0.0009414452581854258
-68.2	-0.0009384761880360672
-68.	-0.0009356262874483762
-67.8	-0.0009330104977562586
-67.6	-0.0009303766824645059
-67.4	-0.0009276436202097573
-67.2	-0.0009248362253127042
-67.	-0.0009219204979031217
-66.8	-0.000919230705926557
-66.6	-0.0009164768736706733
-66.4	-0.0009135792678260206
-66.2	-0.000910837633933039
-66.	-0.0009082383739177358
-65.8	-0.0009055742160539979
-65.6	-0.0009026895319755773
-65.4	-0.0008999931786119605
-65.2	-0.0008973950533433491
-65.	-0.0008946953996946589
-64.8	-0.000891853302369103
-64.6	-0.0008889212315259333
-64.4	-0.0008859314230178089
-64.2	-0.0008831794808394723
-64.	-0.0008801970769087562
-63.8	-0.0008772629110914889
-63.6	-0.0008745502855505711
-63.4	-0.0008718225318887783
-63.2	-0.0008688996652833232
-63.	-0.0008660526360355761
-62.8	-0.0008634113182572796
-62.6	-0.0008607547934774691
-62.4	-0.0008579977216533133
-62.2	-0.0008551080875115399
-62.	-0.0008522118704847054
-61.8	-0.0008495063518341778
-61.6	-0.0008466674539220036
-61.4	-0.0008437028152765903
-61.2	-0.0008408943584547262
-61.	-0.0008381154693748278
-60.8	-0.0008351981144952326
-60.6	-0.0008322183860843504
-60.4	-0.000829468615638375
-60.2	-0.0008268097223470298
-60.	-0.0008240812816210024
-59.8	-0.0008212648060260846
-59.6	-0.0008183965754027541
-59.4	-0.0008157263843479044
-59.2	-0.00081304355308357
-59.	-0.0008101656591914507
-58.8	-0.0008073279415112551
-58.6	-0.0008046801276380811
-58.4	-0.0008019761805496611
-58.2	-0.0007990435556009735
-58.	-0.0007962504323226965
-57.8	-0.0007936391219829794
-57.6	-0.0007910121682986194
-57.4	-0.0007882487073594078
-57.2	-0.000785407730645683
-57.	-0.000782488782531015
-56.8	-0.0007797594409700442
-56.6	-0.0007769356651044327
-56.4	-0.000773947230494631
-56.2	-0.0007711122064284777
-56.	-0.0007683539183767278
-55.8	-0.0007655106417358809
-55.6	-0.0007625698958163193
-55.4	-0.0007598471228000423
-55.2	-0.0007571904217037987
-55.	-0.000754480956786512
-54.8	-0.000751646958125619
-54.6	-0.0007487422487351466
-54.4	-0.000746017628124367
-54.2	-0.0007432834163929607
-54.	-0.0007403958938225785
-53.8	-0.0007375382079342484
-53.6	-0.0007348436298731758
-53.4	-0.000732052074647574
-53.2	-0.0007290783954346604
-53.	-0.00072627347987008
-52.8	-0.0007236022353698477
-52.6	-0.0007209224736451898
-52.4	-0.0007180858367030553
-52.2	-0.0007151860935849072
-52.	-0.0007123865218765557
-51.8	-0.0007097172097623159
-51.6	-0.000706912513819738
-51.4	-0.000703946830765121
-51.2	-0.0007012530783783676
-51.	-0.0006985568714505397
-50.8	-0.0006956329047291601
-50.6	-0.0006927486981404618
-50.4	-0.0006900510619138766
-50.2	-0.000687411966909454
-50.	-0.0006847005674068836
-49.8	-0.000681928207324481
-49.6	-0.0006790551080093648
-49.4	-0.0006763965919171662
-49.2	-0.0006736845205250974
-49.	-0.0006707751468428269
-48.8	-0.0006680001518824729
-48.6	-0.0006653357768528133
-48.4	-0.0006625632876109944
-48.2	-0.000659568753957357
-48.	-0.0006567507796705808
-47.8	-0.0006541256205100992
-47.6	-0.0006514432490465778
-47.4	-0.0006486809892850428
-47.2	-0.0006458670138239187
-47.	-0.0006430874497023352
-46.8	-0.000640445265858669
-46.6	-0.0006377000907668821
-46.4	-0.0006347628378046334
-46.2	-0.0006320331270740319
-46.	-0.0006292699799185456
-45.8	-0.0006263623241064919
-45.6	-0.0006234006736180367
-45.4	-0.0006206506084710115
-45.2	-0.0006179429489116269
-45.	-0.0006151608895821078
-44.8	-0.0006122939878689741
-44.6	-0.0006093449955621372
-44.4	-0.0006066358456562019
-44.2	-0.0006038902927120488
-44.	-0.0006009561098934406
-43.8	-0.0005981459288486519
-43.6	-0.0005954975689385169
-43.4	-0.0005927586319649825
-43.2	-0.000589852538029905
-43.	-0.0005870741036589076
-42.8	-0.0005844720243744799
-42.6	-0.0005817554413172754
-42.4	-0.0005789653391610877
-42.2	-0.0005760758841158208
-42.	-0.0005732832700781199
-41.8	-0.0005705867350104046
-41.6	-0.0005677686931237059
-41.4	-0.0005649347159494791
-41.2	-0.0005622419065673302
-41.	-0.0005595499349081398
-40.8	-0.0005567262745622187
-40.6	-0.000553834182318886
-40.4	-0.0005510838081718462
-40.2	-0.0005483701354719856
-40.	-0.000545556384844094
-39.8	-0.0005427052545119141
-39.6	-0.0005397839626946453
-39.4	-0.0005370559198100277
-39.2	-0.0005342978137264582
-39.	-0.0005313359500420421
-38.8	-0.0005286400786611039
-38.6	-0.000526009206130897
-38.4	-0.0005232566409578798
-38.2	-0.000520397031901803
-38.	-0.0005177442224354383
-37.8	-0.0005151636538352406
-37.6	-0.0005125363798008759
-37.4	-0.0005097680978197942
-37.2	-0.0005069099110969315
-37.	-0.0005041049916592323
-36.8	-0.0005013451113287704
-36.6	-0.0004984945059861056
-36.4	-0.0004955089722776468
-36.2	-0.0004926695202455781
-36.	-0.0004899302689878037
-35.8	-0.00048696830198509053
-35.6	-0.0004841067190607695
-35.4	-0.00048139132956678474
-35.2	-0.0004787587259461503
-35.	-0.0004759749955486397
-34.8	-0.0004732285755049875
-34.6	-0.00047033718490076525
-34.4	-0.0004676929649202776
-34.2	-0.00046499274045087125
-34.	-0.0004620983468334755
-33.8	-0.0004593687012607451
-33.6	-0.0004567059917331762
-33.4	-0.000453968983088348
-33.2	-0.0004511128343953139
-33.	-0.0004483944250297298
-32.8	-0.00044582244561404687
-32.6	-0.0004432091094149389
-32.4	-0.0004404107764044238
-32.2	-0.000437458020191195
-32.	-0.00043470387480134523
-31.8	-0.0004319693661409655
-31.6	-0.00042904229012004136
-31.4	-0.0004260927775042378
-31.2	-0.00042339617586356084
-31.	-0.00042065718022213985
-30.8	-0.0004177903749697979
-30.6	-0.00041498939676964713
-30.4	-0.00041237428771786957
-30.2	-0.0004097660460880585
-30.	-0.00040706055781224333
-29.8	-0.00040428901844271454
-29.6	-0.0004014996336379266
-29.4	-0.00039886042035382067
-29.2	-0.00039614002730114324
-29.	-0.0003932350473747458
-28.8	-0.00039044548736068887
-28.6	-0.00038768138241545164
-28.4	-0.0003849001505949186
-28.2	-0.0003819392255883864
-28.	-0.0003791273993717743
-27.8	-0.00037641324976631356
-27.6	-0.0003736813844654338
-27.4	-0.00037085901079840635
-27.2	-0.0003679792297810972
-27.	-0.0003652404557106747
-26.8	-0.00036254671813951145
-26.6	-0.00035974250962034367
-26.4	-0.000356840058825837
-26.2	-0.00035416970737476276
-26.	-0.0003514632598702777
-25.8	-0.0003486360087136334
-25.6	-0.00034582442120879706
-25.4	-0.0003432187026214227
-25.2	-0.00034060679922838386
-25.	-0.0003379042193300972
-24.8	-0.0003351030084282152
-24.6	-0.0003322197597509818
-24.4	-0.0003295385437532022
-24.2	-0.0003268191736404231
-24.	-0.0003239124208728134
-23.8	-0.0003211104114504726
-23.6	-0.00031843881795262164
-23.4	-0.00031566667424056744
-23.2	-0.00031277188933531464
-23.	-0.00031003960628429573
-22.8	-0.0003074088826291997
-22.6	-0.0003047671948886095
-22.4	-0.0003019598139000119
-22.2	-0.0002990470753615577
-22.	-0.00029631064135893876
-21.8	-0.0002936187535365973
-21.6	-0.0002907929488304636
-21.4	-0.0002879031870357436
-21.2	-0.00028523560609212213
-21.	-0.0002825719232011028
-20.8	-0.0002797444509056563
-20.6	-0.0002769520630744223
-20.4	-0.00027429368668482147
-20.2	-0.00027169908735313485
-20.	-0.0002689701166466716
-19.8	-0.00026611339560143275
-19.6	-0.0002632077486761646
-19.4	-0.0002605455897492864
-19.2	-0.0002578272367469843
-19.	-0.00025494802277097885
-18.8	-0.00025207788305203776
-18.6	-0.0002493874278584299
-18.4	-0.00024665955367033195
-18.2	-0.00024372268283442877
-18.	-0.0002409293509582881
-17.8	-0.00023830813036014375
-17.6	-0.00023567138301359788
-17.4	-0.00023294815677313887
-17.2	-0.0002301188446217709
-17.	-0.0002273700217664025
-16.8	-0.00022474016700016437
-16.6	-0.0002219787562380986
-16.4	-0.00021909907743198503
-16.2	-0.00021631426091885388
-16.	-0.00021360786139054918
-15.8	-0.00021072106436239202
-15.6	-0.00020786019789682824
-15.4	-0.00020515796120091192
-15.2	-0.00020254469479573305
-15.	-0.00019991317918936785
-14.8	-0.00019710635104956445
-14.6	-0.00019425279743015683
-14.4	-0.00019156941399951595
-14.2	-0.00018890521912100406
-14.	-0.00018606549969244765
-13.8	-0.0001832128948231606
-13.6	-0.00018058436776343528
-13.4	-0.0001778996519995413
-13.2	-0.00017508010116394418
-13.	-0.0001723117065143144
-12.8	-0.00016967164334087017
-12.6	-0.00016706570280227047
-12.4	-0.0001643403434102848
-12.2	-0.00016145331814812884
-12.	-0.00015856098844402444
-11.8	-0.0001558625872810995
-11.6	-0.00015309305765486727
-11.4	-0.00015018454118153758
-11.2	-0.0001473748056376097
-11.	-0.00014476491273822932
-10.8	-0.0001420281930294686
-10.6	-0.0001391427787084973
-10.4	-0.00013645342772579527
-10.2	-0.00013384549836425853
-10.	-0.00013125814543906399
-9.8	-0.00012848771842498846
-9.6	-0.00012573092329484745
-9.4	-0.00012295271298051115
-9.2	-0.0001203445580610867
-9.	-0.00011756169926301222
-8.8	-0.00011468555322423457
-8.6	-0.00011199930305314516
-8.4	-0.00010930823635757112
-8.2	-0.00010653711304569142
-8.	-0.00010360824643678221
-7.8	-0.00010096209581954246
-7.6	-0.00009837166486138864
-7.4	-0.00009571600924599506
-7.2	-0.00009293065945605908
-7.	-0.00009000586538935817
-6.8	-0.00008725666156824087
-6.6	-0.00008448535690052444
-6.4	-0.00008157500174196327
-6.2	-0.00007858581352970807
-6.	-0.00007586209009031838
-5.8	-0.00007311042493430512
-5.6	-0.00007026116764581471
-5.4	-0.00006750812859273167
-5.2	-0.00006493544248292728
-5.	-0.00006240232858438974
-4.8	-0.00005977025368067847
-4.6	-0.000056990133893246386
-4.4	-0.00005426556082228161
-4.2	-0.000051650369889881726
-4.	-0.00004897733913302997
-3.8	-0.000046038305646750255
-3.6	-0.000043217244979032404
-3.4	-0.000040522569818571365
-3.2	-0.00003776495342067404
-3.	-0.0000347844992820435
-2.8	-0.000032001022232448854
-2.6	-0.000029376435387908148
-2.4	-0.000026739345254239832
-2.2	-0.00002393935272273754
-2.	-0.000021106053834089226
-1.8	-0.00001833482888356582
-1.6	-0.00001569951886671716
-1.4	-0.000012945501056817048
-1.2	-0.000010084089228646727
-1.	-7.420404879564162e-6
-0.8	-4.753725857053364e-6
-0.6	-1.92896883907683e-6
-0.4	8.615192719204136e-7
-0.2	3.4994487632452223e-6
0	6.095096675224109e-6
0.2	8.684360863052458e-6
0.4	0.00001150117576017576
0.6	0.000014274340328559643
0.8	0.000016994242423343485
1.	0.000019650642438135056
1.2	0.000022462132416807
1.4	0.000025312939623765372
1.6	0.000027981054470646843
1.8	0.000030653751288178194
2.	0.000033544652104754705
2.2	0.00003635172100602731
2.4	0.00003899693952146269
2.6	0.000041629235117253165
2.8	0.00004433417371477571
3.	0.000047154964206700996
3.2	0.00004997766433337996
3.4	0.00005262193134128013
3.6	0.00005529768201611003
3.8	0.000058113248090636716
4.	0.000060908119252476445
4.2	0.00006354829797024648
4.4	0.00006624588722599393
4.6	0.00006911225869649825
4.8	0.00007193207751411956
5.	0.00007455566927291344
5.2	0.00007718040334385424
5.4	0.00007990046863833628
5.6	0.00008275841925470148
5.8	0.00008555746187905735
6.	0.00008822758815439181
6.2	0.00009093892145173236
6.4	0.00009382665726758761
6.6	0.00009653426077834614
6.8	0.0000991324902154659
7.	0.00010186642278052268
7.2	0.00010474551232170569
7.4	0.0001074423138096412
7.6	0.00011005630925948387
7.8	0.00011268837081254632
8.	0.00011547717028707104
8.2	0.00011833668653612924
8.4	0.00012110767058669538
8.6	0.00012375298301049004
8.8	0.00012655015751358427
9.	0.00012944420274146672
9.2	0.00013213170149186827
9.4	0.00013479728214544942
9.6	0.00013760504707823837
9.8	0.00014037354849669864
10.	0.00014297230235998639
10.2	0.00014550922859079564
10.4	0.0001481190620070057
10.6	0.0001508795320802618
10.8	0.0001537331979096464
11.	0.0001563932085495919
11.2	0.000159070215850458
11.4	0.00016188834677179252
11.6	0.00016470477015457263
11.8	0.00016735146380603515
12.	0.00017003030417703322
12.2	0.0001728383868992823
12.4	0.00017569146785642478
12.6	0.00017830155107451516
12.8	0.00018092199230152015
13.	0.00018363103530388738
13.2	0.00018649898623555115
13.4	0.00018935214773917322
13.6	0.00019197299835609696
13.8	0.00019468180070301378
14.	0.0001975539679153981
14.2	0.00020037151700423665
14.4	0.0002030420691489085
14.6	0.00020579380303140197
14.8	0.0002087071784189443
15.	0.00021139563510057683
15.2	0.00021397728428638693
15.4	0.00021651440946075988
15.6	0.00021919902902413173
15.8	0.00022185602870441014
16.	0.00022461475950715724
16.2	0.00022720187609438073
16.4	0.00022987799959303798
16.6	0.0002327097797801282
16.8	0.00023546406096922268
17.	0.0002381349618608396
17.2	0.0002409075271981009
17.4	0.0002438704083865646
17.6	0.0002466022333617296
17.8	0.00024925241476504907
18.	0.0002519676595001297
18.2	0.0002547919179024359
18.4	0.00025763895864828307
18.6	0.0002603562909025214
18.8	0.0002629865169752831
19.	0.0002657159239513777
19.2	0.0002684937883457936
19.4	0.00027112854077047715
19.6	0.00027370734767297785
19.8	0.0002765078248218147
20.	0.00027924478588783224
20.2	0.0002818711369137413
20.4	0.000284461750531586
20.6	0.00028712203891659787
20.8	0.0002899211804455273
21.	0.00029275757505170665
21.2	0.00029549732394444856
21.4	0.00029820511135529565
21.6	0.000301039032587009
21.8	0.0003039205780200428
22.	0.00030659011991381003
22.2	0.00030920772818304016
22.4	0.0003120881649743428
22.6	0.0003147703423264965
22.8	0.0003173428455526248
23.	0.00031986475015867584
23.2	0.0003224780980946059
23.4	0.00032525500911736413
23.6	0.0003281188400035676
23.8	0.000330784948963731
24.	0.0003334482229683952
24.2	0.00033634431903864823
24.4	0.000339170501241385
24.6	0.0003417875487232737
24.8	0.00034444122899509385
25.	0.00034732258721170483
25.2	0.00035004684888959215
25.4	0.00035262033931582337
25.6	0.0003552355068284761
25.8	0.0003579599009662138
26.	0.00036075537724087286
26.2	0.0003635691115136977
26.4	0.00036620228056301606
26.6	0.00036890421207153956
26.8	0.000371737378963992
27.	0.00037442984717396094
27.2	0.0003770256950365892
27.4	0.0003796965387869088
27.6	0.00038251501567011385
27.8	0.0003852328874465864
28.	0.00038784202084628266
28.2	0.00039047087193463237
28.4	0.00039326767920795473
28.6	0.00039610906649317936
28.8	0.00039885171435941747
29.	0.0004015133662168571
29.2	0.0004042834233433559
29.4	0.0004071421053538483
29.6	0.0004098361705656789
29.8	0.0004124852065927306
30.	0.0004152772519721646
30.2	0.0004180795751890104
30.4	0.00042069301997456435
30.6	0.0004232668305280548
30.8	0.00042582798785800914
31.	0.0004285971093751867
31.2	0.00043129777091830123
31.4	0.00043396586195592777
31.6	0.000436543800996678
31.8	0.00043924163775399934
32.	0.00044210392134521427
32.2	0.0004447825735941192
32.4	0.0004474457134350893
32.6	0.00045027220850386173
32.8	0.0004531660072184866
33.	0.000455811562248835
33.2	0.00045843381890769985
33.4	0.0004611606760902736
33.6	0.00046396027092068126
33.8	0.0004668214635768336
34.	0.0004694427276049527
34.2	0.00047208046313660393
34.4	0.00047492598324251005
34.6	0.000477704627465725
34.8	0.0004803234338662182
35.	0.00048297475367947555
35.2	0.00048580516295651955
35.4	0.0004884619130675731
35.6	0.0004909880749237535
35.8	0.000493533130498753
36.	0.0004961786307986892
36.2	0.0004989243789158551
36.4	0.0005017138640730707
36.6	0.0005042933141713348
36.8	0.0005069481017139163
37.	0.0005097908320936495
37.2	0.000512573345475443
37.4	0.0005152525686616605
37.6	0.0005179675981632278
37.8	0.0005208931181469538
38.	0.0005236258668546627
38.2	0.0005262328673696768
38.4	0.0005288360390692875
38.6	0.0005315761780204642
38.8	0.0005343594863394092
39.	0.0005370450672043113
39.2	0.0005396274037688971
39.4	0.0005422783850197588
39.6	0.0005451482394520561
39.8	0.0005478640458372433
40.	0.0005504734414492721
40.2	0.000553246220525712
40.4	0.0005560247702401525
40.6	0.0005586592001238315
40.8	0.0005612097401775023
41.	0.0005637564682943838
41.2	0.0005665351844927174
41.4	0.0005693116266468313
41.6	0.0005720202922700602
41.8	0.0005746930580244174
42.	0.0005774325759050332
42.2	0.0005803782047224089
42.4	0.0005830497527791345
42.6	0.0005857217182598874
42.8	0.0005885432629971735
43.	0.0005913874731619213
43.2	0.000593950981139894
43.4	0.000596497806588907
43.6	0.000599095116002222
43.8	0.0006018382284767931
44.	0.0006046424314652295
44.2	0.0006072624711801468
44.4	0.0006098972877310576
44.6	0.0006126011391308374
44.8	0.0006154703006577998
45.	0.0006180942608072756
45.2	0.0006207552029566332
45.4	0.0006236465137085295
45.6	0.0006263958801655605
45.8	0.0006290302948693662
46.	0.0006315614124429556
46.2	0.0006342134067764711
46.4	0.0006370487263292823
46.6	0.0006398075755595103
46.8	0.0006423882926867344
47.	0.0006450080652281871
47.2	0.000647795558922034
47.4	0.0006505787614213648
47.6	0.0006531277744608814
47.8	0.0006557889317753018
48.	0.0006586344023720567
48.2	0.0006613805750587304
48.4	0.0006639589901548957
48.6	0.000666531184752916
48.8	0.0006692099448569696
49.	0.0006721045784297336
49.2	0.0006748414346959958
49.4	0.0006774432775128622
49.6	0.0006800972008704888
49.8	0.0006829434670255666
50.	0.0006857162581618559
50.2	0.0006883234811227997
50.4	0.0006909829415809122
50.6	0.0006938139846140155
50.8	0.0006964806643879603
51.	0.0006990041214080184
51.2	0.0007015349680965532
51.4	0.0007041622407879601
51.6	0.0007070009043446074
51.8	0.0007097001367001542
52.	0.0007122917905139814
52.2	0.0007149312723359433
52.4	0.0007177601955155638
52.6	0.0007205041373998166
52.8	0.0007230833325300487
53.	0.0007257577032469144
53.2	0.0007286527313626935
53.4	0.0007313753429296403
53.6	0.0007339971814572231
53.8	0.0007366148858153372
54.	0.0007393677497165693
54.2	0.0007422231474484166
54.4	0.0007449955339245663
54.6	0.0007475956624463391
54.8	0.0007502601483718749
55.	0.0007531471128683889
55.2	0.000755817891464921
55.4	0.0007584092592530779
55.6	0.0007611150101818473
55.8	0.0007639335847104217
56.	0.000766510090984285
56.2	0.0007690242613580453
56.4	0.0007715379296797512
56.6	0.0007742195052261439
56.8	0.0007769614881215328
57.	0.0007796716782012799
57.2	0.0007822570239927982
57.4	0.0007848994703723748
57.6	0.0007877615529180082
57.8	0.0007904946336585326
58.	0.0007931349069498584
58.2	0.0007958325385452707
58.4	0.0007987360568627788
58.6	0.000801434433766497
58.8	0.000804016227171093
59.	0.0008066092705418902
59.2	0.0008093083185679493
